# z (m), u (m/s) from SOWFA 
1.000099999999999945e+01 6.423558712005615234e+00
2.000100000000000122e+01 6.982741355895996094e+00
3.000100000000000122e+01 7.181090831756591797e+00
4.000099999999999767e+01 7.335355758666992188e+00
5.000099999999999767e+01 7.443279743194580078e+00
6.000099999999999767e+01 7.544914722442626953e+00
7.000100000000000477e+01 7.637149810791015625e+00
8.000100000000000477e+01 7.725586414337158203e+00
9.000100000000000477e+01 7.804172515869140625e+00
1.000010000000000048e+02 7.877967357635498047e+00
1.100010000000000048e+02 7.949516296386718750e+00
1.200010000000000048e+02 8.025407791137695312e+00
1.300010000000000048e+02 8.103269577026367188e+00
1.400010000000000048e+02 8.179622650146484375e+00
1.500010000000000048e+02 8.256152153015136719e+00
1.600010000000000048e+02 8.323693275451660156e+00
1.700010000000000048e+02 8.376646995544433594e+00
1.800010000000000048e+02 8.418524742126464844e+00
1.900010000000000048e+02 8.453381538391113281e+00
2.000010000000000048e+02 8.485840797424316406e+00
2.100010000000000048e+02 8.516904830932617188e+00
2.200010000000000048e+02 8.547131538391113281e+00
2.300010000000000048e+02 8.579520225524902344e+00
2.400010000000000048e+02 8.613067626953125000e+00
2.500010000000000048e+02 8.643789291381835938e+00
2.600009999999999764e+02 8.672670364379882812e+00
2.700009999999999764e+02 8.698035240173339844e+00
2.800009999999999764e+02 8.721680641174316406e+00
2.900009999999999764e+02 8.746479034423828125e+00
3.000009999999999764e+02 8.772085189819335938e+00
